,customerid,recency,frequency,monetary,avg_order_value,total_items,items_per_order
0,12346,326,0.6931471805599453,11.253955234248428,11.253955234248428,11.214735039333107,74215.0
1,12347,2,2.0794415416798357,8.368925174747135,6.424405846500164,7.807510042216193,351.14285714285717
2,12348,75,1.6094379124341003,7.494563687769957,6.109936234478222,7.758760544157663,585.25
3,12349,19,0.6931471805599453,7.472244884833674,7.472244884833674,6.448889394146858,631.0
4,12350,310,0.6931471805599453,5.815323849389109,5.815323849389109,5.288267030694535,197.0
5,12352,36,2.1972245773362196,7.826858053356098,5.750204758242745,6.285998094508865,67.0
6,12353,204,0.6931471805599453,4.499809670330265,4.499809670330265,3.044522437723423,20.0
7,12354,232,0.6931471805599453,6.985086621918461,6.985086621918461,6.274762021241939,530.0
8,12355,214,0.6931471805599453,6.132095676847728,6.132095676847728,5.484796933490655,240.0
9,12356,23,1.3862943611198906,7.941804157314053,6.8439027447239775,7.3727463664043285,530.3333333333334
10,12357,33,0.6931471805599453,8.733701981297274,8.733701981297274,7.904334842085095,2708.0
11,12358,2,1.0986122886681098,7.063955286074528,6.371663127968259,5.517452896464707,124.0
12,12359,58,1.6094379124341003,8.750054175177759,7.364235059332973,7.383989457978509,402.25
13,12360,52,1.3862943611198906,7.887231116540211,6.789369561749692,7.061334366910438,388.3333333333333
14,12361,287,0.6931471805599453,5.251749730731702,5.251749730731702,4.5217885770490405,91.0
15,12362,3,2.3978952727983707,8.56163678004062,6.260771959732571,7.709756864454165,222.9
16,12363,110,1.0986122886681098,6.315358001522335,5.6240175061873385,6.013715156042802,204.0
17,12364,8,1.6094379124341003,7.180907299649593,5.79689326788511,7.317876198626496,376.5
18,12365,291,1.0986122886681098,6.465180028897591,5.773588348900164,5.1647859739235145,87.0
19,12367,4,0.6931471805599453,5.135210028677887,5.135210028677887,5.159055299214529,173.0
20,12370,51,1.6094379124341003,8.172712169921061,6.787264204897337,7.763446388727362,588.0
21,12371,45,1.0986122886681098,7.543781692052325,6.851163763248618,6.3835066348840055,295.5
22,12372,72,1.3862943611198906,7.169380809114136,6.072306934952083,6.678342114654332,264.6666666666667
23,12373,311,0.6931471805599453,5.901539839579995,5.901539839579995,5.288267030694535,197.0
24,12374,25,0.6931471805599453,6.6119469443852195,6.6119469443852195,5.8377304471659395,342.0
25,12375,11,1.0986122886681098,6.127960291696519,5.436991761235796,5.187385805840755,89.0
26,12377,315,1.0986122886681098,7.395795270713971,6.703261730162972,6.851184927493743,472.0
27,12378,130,0.6931471805599453,8.29645175271804,8.29645175271804,7.835974581721566,2529.0
28,12379,82,1.0986122886681098,6.749040867823617,6.057065004191931,6.0112671744041615,203.5
29,12380,22,1.6094379124341003,7.910520910634419,6.525326534592313,7.028201432058005,281.75
30,12381,5,1.791759469228055,7.520944331624911,5.9136705591679615,6.695798917058491,161.6
31,12383,185,1.791759469228055,7.523783805985769,5.916503903841239,7.334981878871814,306.4
32,12384,29,1.0986122886681098,6.373780434317173,5.6823374994447,4.844187086458591,63.0
33,12386,338,1.0986122886681098,5.998688392197302,5.308020142009422,5.872117789475416,177.0
34,12388,16,1.9459101490553132,7.930803150780257,6.140839555835224,7.288244401020124,243.66666666666666
35,12390,80,0.6931471805599453,6.311444385858925,6.311444385858925,5.869296913133774,353.0
36,12391,22,0.6931471805599453,6.0882736030360425,6.0882736030360425,5.683579767338681,293.0
37,12393,72,1.6094379124341003,7.3674560152319755,5.983054279748012,6.705639094860003,204.0
38,12394,64,1.0986122886681098,7.149508589545504,6.4571463507046944,6.709304340258298,409.5
39,12395,19,2.5649493574615367,8.012889586306857,5.531619147894961,7.6586995582682995,176.5
40,12397,36,1.0986122886681098,7.7877554007552545,7.095022917057849,7.142036574706803,631.5
41,12398,46,0.6931471805599453,7.4004128587924045,7.4004128587924045,7.240649694255466,1394.0
42,12399,119,1.6094379124341003,7.011799929268738,5.628205475292234,7.072421900537371,294.5
43,12401,303,0.6931471805599453,4.446174454497633,4.446174454497633,2.4849066497880004,11.0
44,12402,323,0.6931471805599453,5.423186348593906,5.423186348593906,4.553876891600541,94.0
45,12403,50,0.6931471805599453,6.0607573736039315,6.0607573736039315,4.574710978503383,96.0
46,12405,149,0.6931471805599453,7.445061184797548,7.445061184797548,6.754604099487962,857.0
47,12406,22,1.0986122886681098,8.136313373066384,7.443458864014031,7.506042178518122,909.0
48,12407,50,1.791759469228055,7.4437338971514055,5.8366336359758595,7.256297239690681,283.2
49,12408,33,1.791759469228055,7.968856059639959,6.360801488541086,7.251344983372214,281.8
50,12409,79,1.3862943611198906,9.312325497408466,8.213893801029375,8.62191350218664,1850.3333333333333
51,12410,309,1.0986122886681098,6.542947351813216,5.851239372457318,5.356586274672012,105.5
52,12412,75,1.3862943611198906,7.1130443840624835,6.016059593963362,6.721425700790643,276.3333333333333
53,12413,67,1.3862943611198906,6.632133521022722,5.536152466605237,5.659482215759621,95.33333333333333
54,12414,217,1.3862943611198906,6.334007604663526,5.238938843028537,5.707110264748875,100.0
55,12415,24,3.091042453358316,11.735393027855736,8.691030685511077,11.256419009986898,3684.4761904761904
56,12417,3,2.302585092994046,8.202509843461513,6.007474588583744,7.347943823148687,172.44444444444446
57,12418,113,0.6931471805599453,6.506650650150935,6.506650650150935,6.0112671744041615,407.0
58,12420,64,0.6931471805599453,6.3992436425478765,6.3992436425478765,5.846438775057725,345.0
59,12421,16,1.6094379124341003,6.694611562246261,5.312023013604149,6.184148890937483,121.0
60,12422,96,1.3862943611198906,6.690295544136225,5.594166001666211,5.916202062607435,123.33333333333333
61,12423,1,2.1972245773362196,7.528498419486568,5.45281262985673,7.200424892944957,167.375
62,12424,163,1.0986122886681098,7.474182104762846,6.781602312981556,6.608000625296087,370.0
63,12425,78,0.6931471805599453,6.6569835605504535,6.6569835605504535,6.208590026096629,496.0
64,12426,195,0.6931471805599453,6.369438547154207,6.369438547154207,5.556828061699537,258.0
65,12427,22,1.3862943611198906,6.717562827807614,5.621366582837109,6.280395838960195,177.66666666666666
66,12428,26,2.302585092994046,8.981865132439246,6.78564539600823,8.17103418920548,392.8888888888889
67,12429,9,1.6094379124341003,8.22988438262624,6.844389403360317,7.351158226430694,389.25
68,12430,43,0.6931471805599453,5.5506312951620265,5.5506312951620265,4.770684624465665,117.0
69,12431,36,2.772588722239781,8.767321360814657,6.06144914889006,7.9714309977693505,193.06666666666666
70,12432,43,1.791759469228055,8.529185001388596,6.920537240546674,7.496652438168283,360.2
71,12433,1,2.0794415416798357,9.50128237507538,7.555820660877846,9.31217467785745,1581.5714285714287
72,12434,85,1.0986122886681098,6.6934971352559,6.001588130278833,5.978885764901122,197.0
73,12435,80,1.0986122886681098,8.965831447914955,8.27281195860795,7.628517626575055,1027.5
74,12436,100,0.6931471805599453,6.234430333369278,6.234430333369278,5.356586274672012,211.0
75,12437,2,2.9444389791664403,8.507629605767502,5.620684641874008,7.980365765111246,162.33333333333334
76,12438,14,1.0986122886681098,7.9751692554798295,7.282365912494403,7.074116816197362,590.0
77,12441,367,0.6931471805599453,5.162211233551045,5.162211233551045,4.804021044733257,121.0
78,12442,3,0.6931471805599453,5.153638355178593,5.153638355178593,5.209486152841421,182.0
79,12444,21,1.791759469228055,8.518484357502437,6.909845093797211,7.050989447068045,230.6
80,12445,22,0.6931471805599453,4.900820428089049,4.900820428089049,4.143134726391533,62.0
81,12446,58,0.6931471805599453,6.9110598129904375,6.9110598129904375,5.863631175598097,351.0
82,12447,243,0.6931471805599453,6.168543217293113,6.168543217293113,5.25227342804663,190.0
83,12448,44,0.6931471805599453,6.110247083097449,6.110247083097449,5.497168225293202,243.0
84,12449,22,1.6094379124341003,8.310978042729836,6.925420820414612,7.348587530927593,388.25
85,12450,156,1.0986122886681098,5.292701627762401,4.604570005916059,4.859812404361672,64.0
86,12451,11,1.791759469228055,9.109029423519523,7.500034061421681,8.791181936736017,1315.0
87,12452,17,1.0986122886681098,6.067429722163682,5.37659698242672,5.225746673713202,92.5
88,12453,134,0.6931471805599453,6.562571204258897,6.562571204258897,6.161207321695077,473.0
89,12454,56,0.6931471805599453,8.168866163607964,8.168866163607964,6.914730892718563,1006.0
90,12455,73,1.9459101490553132,7.81110665732229,6.021371185287721,7.644919344958857,348.1666666666667
91,12456,44,1.3862943611198906,8.065277779528966,6.967293821031323,7.3987862754199485,544.3333333333334
92,12457,66,2.0794415416798357,7.768207666517555,5.824832126778667,6.738152494595957,120.42857142857143
93,12458,71,1.0986122886681098,6.854776354191251,6.162683025557272,6.2285110035911835,253.0
94,12461,94,1.0986122886681098,6.718868216346018,6.026928211383551,5.662960480135946,143.5
95,12462,19,1.0986122886681098,7.082204261557526,6.38989664816609,6.285998094508865,268.0
96,12463,53,1.6094379124341003,7.204729049594601,5.8206613980225095,6.655440350367647,194.0
97,12464,10,2.1972245773362196,7.100893128209941,5.027205578814218,4.727387818712341,14.0
98,12465,17,1.0986122886681098,6.610951732080795,5.919149198014245,6.173786103901937,239.5
99,12468,188,1.0986122886681098,6.593783986707386,5.902004720565164,5.905361848054571,183.0
100,12471,2,3.4339872044851463,9.89291435274037,6.493181310884872,9.012011377036412,273.3333333333333
101,12472,32,2.0794415416798357,8.790742363252102,6.84574460775715,8.330622620332868,592.5714285714286
102,12473,29,1.791759469228055,8.276152945361936,6.667732572858675,7.789454566086673,482.8
103,12474,17,2.9444389791664403,8.899060720499207,6.011007064325745,8.483429561263428,268.5
104,12475,54,0.6931471805599453,6.585316116572351,6.585316116572351,6.284134161070802,535.0
105,12476,16,2.4849066497880004,8.82723638014411,6.430806863161178,7.786967002614872,218.9090909090909
106,12477,23,1.9459101490553132,9.489542087633343,7.698160740564423,8.203577736937952,608.8333333333334
107,12478,4,0.6931471805599453,6.525014994979364,6.525014994979364,5.4680601411351315,236.0
108,12479,11,0.6931471805599453,6.269474999863032,6.269474999863032,5.955837369464831,385.0
109,12480,28,1.6094379124341003,8.096400209353131,6.711019332233147,7.443078374348516,426.75
110,12481,23,2.3978952727983707,8.62709099798378,6.326117272278875,8.100161446936607,329.4
111,12483,17,2.1972245773362196,7.818422226986002,5.741792519348646,7.01301578963963,138.75
112,12484,33,1.9459101490553132,8.418106288764006,6.627450372647183,7.690743163541872,364.5
113,12488,10,1.3862943611198906,7.169857970780942,6.072783363285527,6.272877006546167,176.33333333333334
114,12489,336,0.6931471805599453,5.816902804925467,5.816902804925467,4.663439094112067,105.0
115,12490,5,2.3978952727983707,8.597653657970227,6.296728031783233,8.027802848370312,306.4
116,12491,39,0.6931471805599453,6.134265345739653,6.134265345739653,5.564520407322694,260.0
117,12492,63,1.0986122886681098,5.5767442414854775,4.887374784431505,5.262690188904886,96.0
118,12493,166,1.0986122886681098,6.0747481512447195,5.383898554638242,5.337538079701318,103.5
119,12494,16,2.0794415416798357,7.128576134926702,5.187465611115926,6.56244409369372,101.0
120,12497,82,0.6931471805599453,6.950910549296065,6.950910549296065,7.1204443723924875,1236.0
121,12498,21,1.3862943611198906,6.00314605188182,4.909463524245069,5.075173815233827,53.0
122,12500,23,2.4849066497880004,8.356747405587967,5.961197448629325,7.893198869544609,243.45454545454547
123,12501,337,0.6931471805599453,7.682662153888476,7.682662153888476,7.486613313139955,1783.0
124,12502,96,1.791759469228055,8.222787230875806,6.614422605243761,6.710523109452428,164.0
125,12504,18,1.0986122886681098,6.180120167963518,5.489041026606135,4.51085950651685,45.0
126,12506,233,0.6931471805599453,4.310799125385514,4.310799125385514,3.1780538303479458,23.0
127,12507,134,1.3862943611198906,7.174578816863813,6.07749697285895,6.796823718274855,298.0
128,12508,26,1.0986122886681098,5.988660619775247,5.298017321539034,5.605802066295998,135.5
129,12509,284,0.6931471805599453,5.178970608915471,5.178970608915471,4.02535169073515,55.0
130,12510,143,1.0986122886681098,6.8911888096735625,6.199057817073877,5.869296913133774,176.5
131,12512,66,1.0986122886681098,4.891701596682476,4.206035001574797,4.574710978503383,48.0
132,12513,113,0.6931471805599453,6.418837907265026,6.418837907265026,6.137727054086234,462.0
133,12514,267,0.6931471805599453,6.926262950537877,6.926262950537877,6.089044875446846,440.0
134,12515,353,0.6931471805599453,5.95246380975825,5.95246380975825,4.882801922586371,131.0
135,12516,78,1.0986122886681098,7.180115570136106,6.487729679542585,6.775366090936392,437.5
136,12517,28,1.791759469228055,7.817061677081847,6.2092336820847365,7.216709486709457,272.2
137,12518,1,1.791759469228055,7.629436465014086,6.021940404454081,7.1846291527173145,263.6
138,12519,64,0.6931471805599453,5.804652925041163,5.804652925041163,5.170483995038151,175.0
139,12520,79,1.791759469228055,7.876737127834484,6.268815941383721,7.272398392570047,287.8
140,12521,143,0.6931471805599453,6.39806234681208,6.39806234681208,5.736572297479192,309.0
141,12522,39,1.0986122886681098,5.266413817535028,4.578415448679272,5.272999558563747,97.0
142,12523,19,2.4849066497880004,7.490400973937009,5.098074357392835,6.763884908562435,78.63636363636364
143,12524,9,2.1972245773362196,8.408877201532766,6.330994603828433,8.216088098632316,462.375
144,12526,1,1.3862943611198906,7.183612715167257,6.086517117976398,6.450470422144176,210.66666666666666
145,12527,82,1.3862943611198906,5.857104239599851,4.764194683731463,5.459585514144159,78.0
146,12528,9,1.9459101490553132,7.567593835498341,5.7784157056627325,6.6293632534374485,126.0
147,12530,60,1.6094379124341003,7.416546835435133,6.032054514712074,6.81783057145415,228.25
148,12531,15,0.6931471805599453,4.838026416156094,4.838026416156094,3.828641396489095,45.0
149,12532,30,0.6931471805599453,5.860301775655642,5.860301775655642,5.0369526024136295,153.0
150,12534,131,0.6931471805599453,6.9940980992041535,6.9940980992041535,6.480044561926653,651.0
151,12535,92,1.0986122886681098,6.575563866544399,5.883809734896783,5.393627546352362,109.5
152,12536,43,1.3862943611198906,9.441676670894656,8.343223064151342,7.938802248154481,934.3333333333334
153,12538,29,0.6931471805599453,5.899760357897641,5.899760357897641,5.2574953720277815,191.0
154,12539,22,1.6094379124341003,8.625033629522884,7.239277785877436,7.63433723562832,516.75
155,12540,20,2.8903717578961645,9.503102518971122,6.671082382128613,8.807771066980044,393.2352941176471
156,12541,30,1.3862943611198906,6.889774590946187,5.79319651848434,6.523562306149512,226.66666666666666
157,12544,36,0.6931471805599453,5.923453336491439,5.923453336491439,4.919980925828125,136.0
158,12545,75,1.0986122886681098,6.9091443138264115,6.21699524691469,6.261491684321042,261.5
159,12546,47,1.0986122886681098,7.058328137461511,6.366040802182401,6.452048954437226,316.5
160,12547,198,1.0986122886681098,5.341376856008484,4.653007515402251,4.90527477843843,67.0
161,12548,166,0.6931471805599453,4.566429357671661,4.566429357671661,3.912023005428146,49.0
162,12550,79,0.6931471805599453,6.872987835288763,6.872987835288763,6.345636360828596,569.0
163,12551,358,0.6931471805599453,5.1298987149230735,5.1298987149230735,4.61512051684126,100.0
164,12552,39,1.0986122886681098,6.084089306213804,5.393218371742757,4.48863636973214,44.0
165,12553,8,2.3978952727983707,8.214270231095687,5.914119032071235,7.583756300707112,196.5
166,12556,50,1.0986122886681098,6.397862553264747,5.706379100503467,5.87493073085203,177.5
167,12557,16,1.791759469228055,9.391991704219834,7.782887292984425,8.385944904806284,876.8
168,12558,8,0.6931471805599453,5.601971208509516,5.601971208509516,5.2832037287379885,196.0
169,12559,311,1.0986122886681098,6.33276439774036,5.641392754302822,5.648974238161206,141.5
170,12560,5,1.3862943611198906,7.666226609492505,6.568550646097273,7.01301578963963,370.0
171,12561,303,0.6931471805599453,5.480013727948073,5.480013727948073,5.181783550292085,177.0
172,12562,8,2.0794415416798357,8.23820389374878,6.293878639920277,7.484368643286131,254.14285714285714
173,12564,261,0.6931471805599453,6.12665081966305,6.12665081966305,4.897839799950911,133.0
174,12565,289,0.6931471805599453,4.989888220951467,4.989888220951467,4.394449154672439,80.0
175,12566,86,0.6931471805599453,5.865476063654188,5.865476063654188,5.583496308781699,265.0
176,12567,23,2.3978952727983707,9.148707492038316,6.847079155839531,8.367764677924308,430.5
177,12569,2,3.4965075614664802,8.324988557507531,4.866738460662824,7.496652438168283,56.28125
178,12571,40,1.0986122886681098,6.255001200981438,5.563773001647863,6.261491684321042,261.5
179,12572,9,1.0986122886681098,6.928949094989139,6.236780464687332,6.115892125483034,226.0
180,12573,227,0.6931471805599453,5.08475279001415,5.08475279001415,4.442651256490317,84.0
181,12574,316,0.6931471805599453,5.391124416134243,5.391124416134243,4.127134385045092,61.0
182,12576,36,1.791759469228055,7.182982612166326,5.576577693420836,6.875232087276577,193.4
183,12577,35,1.3862943611198906,6.441903020858877,5.346472408435083,6.152732694704104,156.33333333333334
184,12578,21,1.0986122886681098,7.935769837637909,7.242980309593748,7.087573705557973,598.0
185,12579,78,0.6931471805599453,6.0899968031722285,6.0899968031722285,5.655991810819852,285.0
186,12580,247,0.6931471805599453,6.032366538428407,6.032366538428407,5.476463551931511,238.0
187,12581,40,0.6931471805599453,5.291846475417725,5.291846475417725,5.087596335232384,161.0
188,12582,239,1.0986122886681098,6.239027502962935,5.547830172882315,5.707110264748875,150.0
189,12583,3,2.772588722239781,8.89321301083995,6.187083412629001,8.529319371214077,337.3333333333333
190,12584,4,2.302585092994046,7.757542894498013,5.563732527848784,6.0330862217988015,46.22222222222222
191,12585,234,1.0986122886681098,7.621244157199997,6.92858678856207,7.154615356913663,639.5
192,12586,17,0.6931471805599453,5.2879639544685455,5.2879639544685455,4.382026634673881,79.0
193,12587,8,0.6931471805599453,4.976733742420574,4.976733742420574,3.9512437185814275,51.0
194,12588,39,0.6931471805599453,5.3748153375207615,5.3748153375207615,3.9889840465642745,53.0
195,12589,29,1.0986122886681098,6.473396747218991,5.781792348291228,5.726847747587197,153.0
196,12590,211,1.0986122886681098,9.196774773912752,8.503728954018468,8.36264243156764,2141.5
197,12591,317,0.6931471805599453,6.117766746972636,6.117766746972636,5.43372200355424,228.0
198,12592,92,1.0986122886681098,6.083587835983788,5.392718041969521,5.673323267171493,145.0
199,12593,109,1.3862943611198906,6.038109554931026,4.9442580464997725,5.332718793265369,68.66666666666667
200,12594,38,2.3978952727983707,8.113492525763553,5.813599047328618,7.48324441607385,177.7
201,12596,51,1.0986122886681098,6.428541364981557,5.737007686554579,6.163314804034641,237.0
202,12597,19,1.6094379124341003,8.245966975595675,6.860459248039522,7.71289096149013,559.0
203,12598,10,2.1972245773362196,8.01436219197595,5.937232728959049,7.583247524303362,245.5
204,12599,29,2.0794415416798357,6.940783782995926,5.00066191535844,6.863803391452954,136.57142857142858
205,12600,29,2.3978952727983707,7.863282108506616,5.564152523569809,6.652863029353347,77.4
206,12601,190,1.791759469228055,6.359677669513258,4.757135622767147,5.5053315359323625,49.0
207,12602,59,0.6931471805599453,5.037731519757957,5.037731519757957,5.093750200806762,162.0
208,12603,22,0.6931471805599453,6.606920419952056,6.606920419952056,4.1588830833596715,63.0
209,12604,79,1.0986122886681098,5.541969178493598,4.852733141843045,5.308267697401205,100.5
210,12607,60,0.6931471805599453,7.3655028587473295,7.3655028587473295,7.113956109566034,1228.0
211,12609,78,1.3862943611198906,7.0280684444921455,5.931227870864265,6.47543271670409,216.0
